Wavelength (nm),Intensity
394.27,941.2000
394.56,924.8000
394.85,937.8000
395.14,922.0000
395.44,928.8000
395.73,929.0000
396.02,912.6000
396.31,917.2000
396.61,928.2000
396.90,926.0000
397.19,927.0000
397.48,928.2000
397.77,932.8000
398.06,928.4000
398.36,927.4000
398.65,920.2000
398.94,918.2000
399.23,911.6000
399.52,912.8000
399.82,927.8000
400.11,923.6000
400.40,931.8000
400.69,921.0000
400.98,924.6000
401.27,933.6000
401.57,902.6000
401.86,923.8000
402.15,921.8000
402.44,916.4000
402.73,933.8000
403.02,931.0000
403.32,917.2000
403.61,920.4000
403.90,917.8000
404.19,947.0000
404.48,933.2000
404.77,932.2000
405.06,939.2000
405.36,940.8000
405.65,925.2000
405.94,918.8000
406.23,927.0000
406.52,939.0000
406.81,949.2000
407.10,934.6000
407.40,928.4000
407.69,935.2000
407.98,929.0000
408.27,930.6000
408.56,918.4000
408.85,945.2000
409.14,922.2000
409.43,937.8000
409.72,927.4000
410.02,950.4000
410.31,925.4000
410.60,930.4000
410.89,944.2000
411.18,934.6000
411.47,937.2000
411.76,940.6000
412.05,928.8000
412.34,939.0000
412.63,935.2000
412.93,958.0000
413.22,950.2000
413.51,921.8000
413.80,943.6000
414.09,929.4000
414.38,929.8000
414.67,932.0000
414.96,936.6000
415.25,958.4000
415.54,935.0000
415.83,921.6000
416.12,924.0000
416.41,920.8000
416.70,935.4000
417.00,945.2000
417.29,938.0000
417.58,936.2000
417.87,938.6000
418.16,941.0000
418.45,932.4000
418.74,935.6000
419.03,937.2000
419.32,959.4000
419.61,940.2000
419.90,955.2000
420.19,953.8000
420.48,944.6000
420.77,924.6000
421.06,934.6000
421.35,944.6000
421.64,942.8000
421.93,940.0000
422.22,939.6000
422.51,961.0000
422.80,946.8000
423.09,950.0000
423.38,959.8000
423.67,943.4000
423.96,947.8000
424.25,946.0000
424.54,944.8000
424.83,936.8000
425.12,951.2000
425.41,960.4000
425.70,1001.2000
425.99,957.6000
426.28,959.4000
426.57,963.0000
426.86,959.4000
427.15,962.0000
427.44,978.2000
427.73,971.4000
428.02,962.8000
428.31,967.2000
428.60,976.4000
428.89,972.0000
429.18,971.0000
429.47,976.6000
429.76,975.0000
430.05,963.2000
430.34,978.0000
430.63,979.2000
430.92,989.6000
431.21,989.2000
431.50,983.8000
431.79,995.8000
432.08,994.2000
432.37,1004.2000
432.66,1002.8000
432.94,1004.0000
433.23,1013.2000
433.52,1013.2000
433.81,1022.2000
434.10,1048.2000
434.39,1027.8000
434.68,1030.4000
434.97,1023.2000
435.26,1025.0000
435.55,1042.4000
435.84,1042.4000
436.13,1044.0000
436.42,1057.6000
436.71,1055.2000
436.99,1052.0000
437.28,1073.0000
437.57,1082.6000
437.86,1074.4000
438.15,1096.0000
438.44,1087.6000
438.73,1095.8000
439.02,1117.2000
439.31,1131.6000
439.60,1122.0000
439.88,1139.0000
440.17,1137.6000
440.46,1151.6000
440.75,1152.8000
441.04,1156.8000
441.33,1196.8000
441.62,1203.8000
441.91,1197.4000
442.20,1210.6000
442.48,1240.4000
442.77,1234.2000
443.06,1257.0000
443.35,1255.0000
443.64,1293.2000
443.93,1304.0000
444.22,1323.4000
444.50,1340.4000
444.79,1371.6000
445.08,1386.0000
445.37,1398.6000
445.66,1417.8000
445.95,1407.2000
446.24,1473.6000
446.52,1490.2000
446.81,1528.6000
447.10,1523.2000
447.39,1559.4000
447.68,1556.6000
447.97,1574.8000
448.25,1616.0000
448.54,1630.0000
448.83,1668.0000
449.12,1679.0000
449.41,1680.6000
449.69,1700.4000
449.98,1714.0000
450.27,1721.2000
450.56,1735.8000
450.85,1759.0000
451.14,1754.2000
451.42,1754.4000
451.71,1775.2000
452.00,1773.6000
452.29,1775.0000
452.58,1779.2000
452.86,1756.6000
453.15,1764.4000
453.44,1746.6000
453.73,1750.6000
454.01,1724.6000
454.30,1763.0000
454.59,1693.2000
454.88,1676.4000
455.17,1674.2000
455.45,1674.4000
455.74,1658.0000
456.03,1644.2000
456.32,1619.6000
456.60,1606.0000
456.89,1587.6000
457.18,1569.2000
457.47,1566.4000
457.76,1523.2000
458.04,1531.6000
458.33,1521.6000
458.62,1511.6000
458.91,1488.2000
459.19,1466.8000
459.48,1474.4000
459.77,1448.8000
460.06,1466.6000
460.34,1436.4000
460.63,1439.4000
460.92,1442.4000
461.20,1416.4000
461.49,1418.6000
461.78,1417.8000
462.07,1415.8000
462.35,1403.8000
462.64,1412.2000
462.93,1402.2000
463.22,1395.2000
463.50,1389.4000
463.79,1388.6000
464.08,1405.8000
464.36,1385.8000
464.65,1375.8000
464.94,1375.8000
465.22,1379.6000
465.51,1372.6000
465.80,1381.0000
466.09,1370.8000
466.37,1373.6000
466.66,1381.4000
466.95,1360.0000
467.23,1353.6000
467.52,1345.4000
467.81,1371.4000
468.09,1338.8000
468.38,1326.8000
468.67,1342.6000
468.95,1323.4000
469.24,1315.0000
469.53,1308.4000
469.81,1317.0000
470.10,1300.6000
470.39,1315.6000
470.67,1277.4000
470.96,1280.2000
471.25,1279.8000
471.53,1288.8000
471.82,1268.6000
472.11,1249.0000
472.39,1239.8000
472.68,1242.8000
472.97,1225.8000
473.25,1245.0000
473.54,1225.8000
473.82,1232.2000
474.11,1215.2000
474.40,1218.6000
474.68,1217.6000
474.97,1217.8000
475.26,1212.4000
475.54,1194.0000
475.83,1211.6000
476.11,1196.6000
476.40,1204.6000
476.69,1199.0000
476.97,1198.2000
477.26,1184.6000
477.55,1206.8000
477.83,1197.6000
478.12,1194.2000
478.40,1197.4000
478.69,1176.8000
478.98,1188.4000
479.26,1180.2000
479.55,1181.4000
479.83,1196.8000
480.12,1206.6000
480.40,1193.6000
480.69,1183.8000
480.98,1186.8000
481.26,1219.2000
481.55,1185.2000
481.83,1205.0000
482.12,1203.2000
482.41,1205.2000
482.69,1194.8000
482.98,1216.0000
483.26,1224.6000
483.55,1202.6000
483.83,1214.8000
484.12,1206.0000
484.40,1197.8000
484.69,1188.0000
484.98,1221.8000
485.26,1208.4000
485.55,1216.2000
485.83,1204.0000
486.12,1235.4000
486.40,1220.2000
486.69,1231.6000
486.97,1220.8000
487.26,1229.6000
487.54,1224.6000
487.83,1230.4000
488.11,1243.2000
488.40,1251.0000
488.68,1243.4000
488.97,1245.6000
489.26,1247.8000
489.54,1254.8000
489.83,1264.4000
490.11,1271.8000
490.40,1261.2000
490.68,1273.8000
490.97,1277.0000
491.25,1264.8000
491.54,1264.8000
491.82,1286.0000
492.11,1301.2000
492.39,1306.8000
492.68,1282.6000
492.96,1319.4000
493.24,1290.0000
493.53,1314.8000
493.81,1336.4000
494.10,1299.8000
494.38,1326.6000
494.67,1327.0000
494.95,1355.6000
495.24,1336.2000
495.52,1351.4000
495.81,1361.6000
496.09,1346.6000
496.38,1354.6000
496.66,1384.6000
496.95,1376.0000
497.23,1387.4000
497.51,1360.6000
497.80,1383.6000
498.08,1396.4000
498.37,1396.6000
498.65,1401.4000
498.94,1424.0000
499.22,1416.8000
499.51,1415.4000
499.79,1436.4000
500.07,1430.0000
500.36,1452.8000
500.64,1456.0000
500.93,1464.0000
501.21,1477.6000
501.50,1458.2000
501.78,1471.8000
502.06,1465.0000
502.35,1464.2000
502.63,1473.0000
502.92,1514.8000
503.20,1520.0000
503.48,1523.0000
503.77,1521.8000
504.05,1499.8000
504.34,1521.2000
504.62,1525.0000
504.90,1536.0000
505.19,1552.6000
505.47,1549.6000
505.76,1547.4000
506.04,1562.6000
506.32,1566.6000
506.61,1581.2000
506.89,1569.4000
507.17,1580.2000
507.46,1577.0000
507.74,1591.6000
508.03,1594.4000
508.31,1598.0000
508.59,1603.4000
508.88,1593.8000
509.16,1641.6000
509.44,1636.0000
509.73,1617.0000
510.01,1628.0000
510.29,1650.4000
510.58,1618.8000
510.86,1635.0000
511.14,1654.4000
511.43,1655.6000
511.71,1656.8000
511.99,1664.8000
512.28,1661.8000
512.56,1657.6000
512.84,1663.6000
513.13,1669.8000
513.41,1687.0000
513.69,1691.6000
513.98,1671.6000
514.26,1697.2000
514.54,1680.8000
514.83,1698.8000
515.11,1702.0000
515.39,1723.8000
515.68,1728.8000
515.96,1730.2000
516.24,1705.4000
516.53,1739.0000
516.81,1740.8000
517.09,1713.6000
517.37,1723.8000
517.66,1723.0000
517.94,1727.2000
518.22,1747.8000
518.51,1740.8000
518.79,1759.4000
519.07,1748.2000
519.35,1760.6000
519.64,1780.0000
519.92,1782.6000
520.20,1781.6000
520.48,1784.4000
520.77,1770.6000
521.05,1800.6000
521.33,1772.6000
521.62,1771.6000
521.90,1792.6000
522.18,1791.6000
522.46,1783.4000
522.75,1817.6000
523.03,1802.4000
523.31,1792.4000
523.59,1827.0000
523.88,1812.0000
524.16,1804.6000
524.44,1831.8000
524.72,1828.0000
525.00,1823.6000
525.29,1819.4000
525.57,1810.4000
525.85,1821.2000
526.13,1827.8000
526.42,1808.8000
526.70,1843.0000
526.98,1833.4000
527.26,1832.4000
527.54,1829.2000
527.83,1842.4000
528.11,1840.2000
528.39,1851.6000
528.67,1850.8000
528.95,1844.8000
529.24,1850.6000
529.52,1861.6000
529.80,1842.8000
530.08,1859.0000
530.36,1866.4000
530.65,1890.2000
530.93,1872.6000
531.21,1871.2000
531.49,1876.2000
531.77,1887.8000
532.05,1873.8000
532.34,1879.0000
532.62,1887.0000
532.90,1874.8000
533.18,1892.6000
533.46,1910.2000
533.74,1899.6000
534.03,1884.8000
534.31,1903.2000
534.59,1900.6000
534.87,1912.2000
535.15,1901.6000
535.43,1908.8000
535.71,1928.6000
536.00,1902.6000
536.28,1906.6000
536.56,1938.2000
536.84,1920.8000
537.12,1919.8000
537.40,1913.8000
537.68,1932.2000
537.97,1944.6000
538.25,1920.8000
538.53,1925.8000
538.81,1955.0000
539.09,1953.6000
539.37,1931.8000
539.65,1937.4000
539.93,1970.6000
540.21,1940.0000
540.50,1966.4000
540.78,1966.0000
541.06,1976.0000
541.34,1968.2000
541.62,1964.8000
541.90,1969.4000
542.18,1970.8000
542.46,1988.4000
542.74,1997.8000
543.02,1983.6000
543.30,1983.4000
543.58,1999.0000
543.87,1982.0000
544.15,2007.0000
544.43,1992.8000
544.71,2014.2000
544.99,2014.2000
545.27,1994.2000
545.55,1998.2000
545.83,2000.2000
546.11,2028.8000
546.39,2028.0000
546.67,2037.2000
546.95,2037.2000
547.23,2039.0000
547.51,2036.0000
547.79,2040.6000
548.07,2038.4000
548.35,2060.0000
548.63,2042.6000
548.91,2081.8000
549.20,2069.8000
549.48,2093.6000
549.76,2049.0000
550.04,2068.6000
550.32,2082.6000
550.60,2078.8000
550.88,2081.2000
551.16,2115.0000
551.44,2101.6000
551.72,2089.8000
552.00,2113.4000
552.28,2110.4000
552.56,2118.0000
552.84,2118.4000
553.12,2116.6000
553.40,2121.6000
553.68,2139.8000
553.96,2132.4000
554.24,2111.2000
554.52,2155.8000
554.80,2154.2000
555.08,2152.4000
555.36,2152.8000
555.64,2170.0000
555.92,2184.6000
556.19,2172.2000
556.47,2172.4000
556.75,2170.4000
557.03,2190.8000
557.31,2192.2000
557.59,2205.4000
557.87,2185.2000
558.15,2198.2000
558.43,2184.6000
558.71,2209.2000
558.99,2213.6000
559.27,2227.2000
559.55,2222.2000
559.83,2216.0000
560.11,2228.4000
560.39,2226.2000
560.67,2236.2000
560.95,2268.0000
561.23,2236.2000
561.50,2267.6000
561.78,2248.8000
562.06,2237.2000
562.34,2256.4000
562.62,2276.6000
562.90,2286.4000
563.18,2297.2000
563.46,2285.6000
563.74,2301.2000
564.02,2321.4000
564.30,2314.6000
564.57,2302.2000
564.85,2321.4000
565.13,2354.0000
565.41,2317.2000
565.69,2318.8000
565.97,2322.6000
566.25,2330.2000
566.53,2313.0000
566.81,2354.8000
567.08,2362.6000
567.36,2359.8000
567.64,2352.0000
567.92,2367.4000
568.20,2349.6000
568.48,2367.0000
568.76,2376.8000
569.04,2389.0000
569.31,2368.6000
569.59,2371.2000
569.87,2363.0000
570.15,2386.4000
570.43,2387.6000
570.71,2396.8000
570.99,2387.0000
571.26,2394.0000
571.54,2439.6000
571.82,2398.8000
572.10,2405.2000
572.38,2403.6000
572.66,2421.6000
572.93,2417.2000
573.21,2407.0000
573.49,2419.8000
573.77,2424.6000
574.05,2446.2000
574.32,2435.2000
574.60,2460.8000
574.88,2441.6000
575.16,2454.4000
575.44,2451.8000
575.71,2450.6000
575.99,2490.2000
576.27,2472.4000
576.55,2475.4000
576.83,2465.2000
577.10,2490.4000
577.38,2466.2000
577.66,2494.2000
577.94,2512.4000
578.22,2468.6000
578.49,2500.2000
578.77,2493.8000
579.05,2518.6000
579.33,2530.0000
579.60,2506.0000
579.88,2546.4000
580.16,2528.6000
580.44,2545.2000
580.72,2548.4000
580.99,2553.2000
581.27,2572.6000
581.55,2586.4000
581.83,2588.0000
582.10,2600.8000
582.38,2604.4000
582.66,2624.2000
582.94,2602.0000
583.21,2637.4000
583.49,2653.4000
583.77,2664.8000
584.04,2662.6000
584.32,2664.2000
584.60,2683.4000
584.88,2672.4000
585.15,2695.0000
585.43,2705.2000
585.71,2689.2000
585.98,2702.4000
586.26,2702.4000
586.54,2723.4000
586.82,2736.2000
587.09,2749.6000
587.37,2777.2000
587.65,2753.8000
587.92,2779.8000
588.20,2817.2000
588.48,2810.2000
588.75,2778.8000
589.03,2813.0000
589.31,2828.0000
589.59,2821.0000
589.86,2845.0000
590.14,2859.0000
590.42,2873.8000
590.69,2859.6000
590.97,2870.8000
591.25,2865.8000
591.52,2904.0000
591.80,2910.2000
592.08,2905.2000
592.35,2927.0000
592.63,2955.2000
592.91,2935.2000
593.18,2974.6000
593.46,2961.2000
593.73,2963.8000
594.01,2985.6000
594.29,2978.6000
594.56,2968.2000
594.84,2962.0000
595.12,2986.8000
595.39,3017.6000
595.67,2991.2000
595.95,3008.2000
596.22,3011.6000
596.50,3014.2000
596.77,3021.6000
597.05,3042.0000
597.33,3043.8000
597.60,3044.6000
597.88,3050.8000
598.15,3044.8000
598.43,3065.2000
598.71,3080.0000
598.98,3105.0000
599.26,3068.6000
599.53,3092.2000
599.81,3104.8000
600.09,3102.0000
600.36,3099.6000
600.64,3117.4000
600.91,3101.0000
601.19,3096.4000
601.47,3114.8000
601.74,3116.2000
602.02,3127.6000
602.29,3141.0000
602.57,3135.2000
602.84,3136.4000
603.12,3138.2000
603.40,3145.4000
603.67,3159.2000
603.95,3177.4000
604.22,3189.2000
604.50,3159.6000
604.77,3155.4000
605.05,3167.6000
605.32,3162.0000
605.60,3164.4000
605.87,3152.4000
606.15,3165.6000
606.42,3171.6000
606.70,3172.0000
606.98,3167.6000
607.25,3190.2000
607.53,3180.0000
607.80,3186.2000
608.08,3183.8000
608.35,3191.6000
608.63,3197.6000
608.90,3220.2000
609.18,3193.8000
609.45,3212.8000
609.73,3199.4000
610.00,3218.6000
610.28,3223.6000
610.55,3193.8000
610.83,3195.4000
611.10,3177.8000
611.38,3191.0000
611.65,3218.4000
611.93,3195.0000
612.20,3211.4000
612.48,3197.0000
612.75,3211.4000
613.03,3191.0000
613.30,3232.4000
613.57,3198.6000
613.85,3215.6000
614.12,3217.0000
614.40,3185.4000
614.67,3204.8000
614.95,3201.0000
615.22,3181.2000
615.50,3178.6000
615.77,3201.4000
616.05,3143.8000
616.32,3176.6000
616.59,3189.8000
616.87,3170.2000
617.14,3190.0000
617.42,3160.2000
617.69,3156.8000
617.97,3169.4000
618.24,3162.6000
618.51,3160.4000
618.79,3166.2000
619.06,3143.0000
619.34,3128.4000
619.61,3148.2000
619.88,3164.8000
620.16,3116.4000
620.43,3162.2000
620.71,3105.0000
620.98,3125.0000
621.26,3110.4000
621.53,3124.0000
621.80,3119.0000
622.08,3120.8000
622.35,3089.8000
622.62,3106.2000
622.90,3113.4000
623.17,3092.4000
623.45,3081.0000
623.72,3077.6000
623.99,3068.0000
624.27,3068.2000
624.54,3035.8000
624.81,3084.6000
625.09,3052.6000
625.36,3058.2000
625.64,3064.6000
625.91,3041.2000
626.18,3034.6000
626.46,3036.6000
626.73,3036.0000
627.00,3044.0000
627.28,3001.2000
627.55,3013.2000
627.82,2994.2000
628.10,3019.8000
628.37,2997.2000
628.64,2981.4000
628.92,2966.4000
629.19,2980.8000
629.46,2973.4000
629.74,2973.6000
630.01,2977.8000
630.28,2979.4000
630.56,2982.0000
630.83,2950.4000
631.10,2983.4000
631.37,2963.0000
631.65,2961.4000
631.92,2930.8000
632.19,2913.4000
632.47,2930.2000
632.74,2888.6000
633.01,2927.2000
633.28,2872.8000
633.56,2889.4000
633.83,2860.4000
634.10,2878.8000
634.38,2863.4000
634.65,2880.6000
634.92,2843.2000
635.19,2874.6000
635.47,2867.0000
635.74,2834.2000
636.01,2823.2000
636.28,2823.0000
636.56,2815.0000
636.83,2805.2000
637.10,2805.0000
637.37,2789.2000
637.65,2763.2000
637.92,2756.0000
638.19,2733.0000
638.46,2767.4000
638.74,2732.8000
639.01,2770.4000
639.28,2726.0000
639.55,2722.2000
639.83,2704.2000
640.10,2707.0000
640.37,2676.6000
640.64,2690.4000
640.91,2682.2000
641.19,2684.6000
641.46,2666.2000
641.73,2695.2000
642.00,2650.8000
642.28,2635.4000
642.55,2629.0000
642.82,2614.2000
643.09,2633.8000
643.36,2606.4000
643.63,2593.0000
643.91,2607.6000
644.18,2606.0000
644.45,2569.6000
644.72,2584.6000
644.99,2553.6000
645.27,2536.0000
645.54,2567.2000
645.81,2578.0000
646.08,2561.6000
646.35,2521.4000
646.62,2539.6000
646.90,2525.0000
647.17,2505.0000
647.44,2513.6000
647.71,2482.4000
647.98,2486.4000
648.25,2489.8000
648.52,2447.2000
648.80,2456.0000
649.07,2471.0000
649.34,2437.2000
649.61,2435.4000
649.88,2436.8000
650.15,2426.6000
650.42,2421.2000
650.69,2424.0000
650.97,2406.6000
651.24,2414.2000
651.51,2384.0000
651.78,2380.2000
652.05,2372.6000
652.32,2366.0000
652.59,2377.4000
652.86,2338.8000
653.13,2330.2000
653.41,2332.2000
653.68,2310.4000
653.95,2313.2000
654.22,2314.4000
654.49,2289.4000
654.76,2268.2000
655.03,2309.0000
655.30,2275.0000
655.57,2262.4000
655.84,2260.4000
656.11,2287.6000
656.38,2247.6000
656.66,2237.0000
656.93,2205.4000
657.20,2242.0000
657.47,2236.6000
657.74,2207.0000
658.01,2211.4000
658.28,2191.4000
658.55,2192.6000
658.82,2185.2000
659.09,2194.8000
659.36,2161.8000
659.63,2146.2000
659.90,2142.0000
660.17,2167.2000
660.44,2143.6000
660.71,2130.4000
660.98,2120.0000
661.25,2089.0000
661.52,2116.4000
661.79,2081.6000
662.06,2097.2000
662.33,2080.6000
662.60,2072.4000
662.87,2081.2000
663.14,2060.6000
663.41,2052.6000
663.68,2055.0000
663.95,2034.4000
664.22,2034.2000
664.49,2042.2000
664.76,2024.4000
665.03,2017.6000
665.30,1981.0000
665.57,1986.4000
665.84,1988.6000
666.11,1972.0000
666.38,1981.2000
666.65,1963.8000
666.92,1996.6000
667.19,1970.8000
667.46,1964.2000
667.73,1956.6000
668.00,1930.4000
668.27,1914.8000
668.54,1917.4000
668.81,1908.6000
669.08,1918.6000
669.35,1902.8000
669.62,1918.4000
669.89,1886.8000
670.16,1885.8000
670.42,1879.8000
670.69,1879.8000
670.96,1875.2000
671.23,1856.6000
671.50,1852.2000
671.77,1837.6000
672.04,1842.8000
672.31,1815.8000
672.58,1801.4000
672.85,1807.6000
673.12,1815.4000
673.39,1808.6000
673.65,1819.8000
673.92,1820.6000
674.19,1796.4000
674.46,1779.8000
674.73,1790.0000
675.00,1774.8000
675.27,1762.8000
675.54,1773.2000
675.81,1763.2000
676.07,1751.2000
676.34,1760.0000
676.61,1763.2000
676.88,1726.4000
677.15,1713.4000
677.42,1735.4000
677.69,1721.8000
677.96,1706.4000
678.22,1694.2000
678.49,1696.4000
678.76,1685.4000
679.03,1675.4000
679.30,1672.6000
679.57,1654.0000
679.83,1682.2000
680.10,1659.6000
680.37,1669.0000
680.64,1661.6000
680.91,1652.6000
681.18,1665.2000
681.44,1633.4000
681.71,1631.4000
681.98,1638.2000
682.25,1617.4000
682.52,1641.8000
682.79,1640.2000
683.05,1619.6000
683.32,1606.8000
683.59,1598.4000
683.86,1612.8000
684.13,1607.0000
684.39,1582.8000
684.66,1583.6000
684.93,1596.2000
685.20,1582.0000
685.47,1560.8000
685.73,1571.0000
686.00,1550.0000
686.27,1558.4000
686.54,1542.4000
686.80,1537.2000
687.07,1535.2000
687.34,1533.6000
687.61,1537.0000
687.88,1533.6000
688.14,1527.8000
688.41,1532.2000
688.68,1510.6000
688.95,1500.0000
689.21,1491.2000
689.48,1522.8000
689.75,1497.0000
690.02,1492.8000
690.28,1470.2000
690.55,1481.0000
690.82,1467.4000
691.08,1491.8000
691.35,1479.4000
691.62,1475.0000
691.89,1461.4000
692.15,1458.2000
692.42,1464.8000
692.69,1444.6000
692.95,1452.2000
693.22,1451.8000
693.49,1445.6000
693.76,1430.6000
694.02,1453.2000
694.29,1442.6000
694.56,1436.8000
694.82,1436.4000
695.09,1408.0000
695.36,1413.6000
695.62,1414.4000
695.89,1419.4000
696.16,1409.2000
696.43,1419.4000
696.69,1418.0000
696.96,1417.4000
697.23,1388.2000
697.49,1413.4000
697.76,1408.2000
698.03,1390.2000
698.29,1371.2000
698.56,1385.4000
698.82,1362.2000
699.09,1390.8000
699.36,1376.4000
699.62,1375.8000
699.89,1372.8000
700.16,1340.0000
700.42,1373.2000
700.69,1372.6000
700.96,1368.0000
701.22,1354.6000
701.49,1349.4000
701.75,1365.6000
702.02,1338.2000
702.29,1334.8000
702.55,1338.4000
702.82,1355.6000
703.09,1340.2000
703.35,1352.0000
703.62,1353.0000
703.88,1347.8000
704.15,1306.0000
704.42,1347.4000
704.68,1333.8000
704.95,1346.2000
705.21,1307.6000
705.48,1341.0000
705.75,1305.4000
706.01,1325.0000
706.28,1318.4000
706.54,1315.2000
706.81,1317.4000
707.07,1317.6000
707.34,1295.8000
707.61,1319.8000
707.87,1303.4000
708.14,1296.4000
708.40,1311.4000
708.67,1314.8000
708.93,1301.6000
709.20,1292.2000
709.46,1306.8000
709.73,1297.0000
709.99,1300.2000
710.26,1294.6000
710.53,1290.2000
710.79,1266.8000
711.06,1299.6000
711.32,1383.0000
711.59,1319.4000
711.85,1302.8000
712.12,1293.6000
712.38,1278.0000
712.65,1286.6000
712.91,1290.6000
713.18,1296.8000
713.44,1289.8000
713.71,1288.4000
713.97,1282.8000
714.24,1291.0000
714.50,1276.4000
714.77,1271.0000
715.03,1277.0000
715.30,1291.8000
715.56,1264.4000
715.83,1254.6000
716.09,1278.8000
716.36,1283.8000
716.62,1264.0000
716.89,1246.0000
717.15,1249.4000
717.42,1242.0000
717.68,1241.0000
717.94,1238.4000
718.21,1242.4000
718.47,1264.8000
718.74,1237.2000
719.00,1234.2000
719.27,1243.0000
719.53,1222.4000
719.80,1230.6000
720.06,1238.2000
720.32,1257.8000
720.59,1248.4000
720.85,1247.4000
721.12,1247.2000
721.38,1254.4000
721.65,1241.8000
721.91,1252.4000
722.17,1251.2000
722.44,1267.6000
722.70,1241.0000
722.97,1253.4000
723.23,1241.0000
723.49,1230.4000
723.76,1239.2000
724.02,1254.2000
724.29,1244.8000
724.55,1254.2000
724.81,1251.6000
725.08,1248.4000
725.34,1259.4000
725.61,1222.2000
725.87,1248.2000
726.13,1240.4000
726.40,1261.6000
726.66,1255.4000
726.92,1250.0000
727.19,1256.6000
727.45,1251.0000
727.71,1270.2000
727.98,1255.0000
728.24,1278.0000
728.51,1258.8000
728.77,1236.8000
729.03,1264.8000
729.30,1274.8000
729.56,1255.2000
729.82,1275.0000
730.09,1259.0000
730.35,1243.2000
730.61,1257.2000
730.88,1249.0000
731.14,1270.2000
731.40,1271.2000
731.67,1268.8000
731.93,1274.0000
732.19,1295.2000
732.45,1294.6000
732.72,1278.6000
732.98,1286.8000
733.24,1292.2000
733.51,1294.4000
733.77,1299.8000
734.03,1316.0000
734.30,1319.6000
734.56,1300.8000
734.82,1295.0000
735.08,1307.0000
735.35,1307.0000
735.61,1296.4000
735.87,1306.4000
736.14,1313.4000
736.40,1318.8000
736.66,1315.8000
736.92,1311.6000
737.19,1303.8000
737.45,1322.0000
737.71,1325.6000
737.97,1305.0000
738.24,1316.4000
738.50,1318.0000
738.76,1307.8000
739.02,1320.6000
739.29,1323.2000
739.55,1336.4000
739.81,1320.4000
740.07,1323.4000
740.33,1327.6000
740.60,1327.6000
740.86,1332.8000
741.12,1336.8000
741.38,1316.4000
741.65,1340.4000
741.91,1335.4000
742.17,1330.6000
742.43,1312.8000
742.69,1318.8000
742.96,1349.2000
743.22,1357.6000
743.48,1349.0000
743.74,1340.2000
744.00,1357.4000
744.26,1325.4000
744.53,1335.8000
744.79,1339.6000
745.05,1342.6000
745.31,1332.4000
745.57,1357.2000
745.84,1337.6000
746.10,1334.2000
746.36,1334.2000
746.62,1340.0000
746.88,1339.4000
747.14,1353.8000
747.40,1336.6000
747.67,1343.6000
747.93,1362.8000
748.19,1348.6000
748.45,1349.2000
748.71,1355.2000
748.97,1367.0000
749.23,1345.6000
749.50,1358.4000
749.76,1347.6000
750.02,1330.6000
750.28,1359.0000
750.54,1326.8000
750.80,1349.4000
751.06,1332.4000
751.32,1323.0000
751.59,1342.4000
751.85,1354.8000
752.11,1355.2000
752.37,1371.0000
752.63,1364.2000
752.89,1355.8000
753.15,1379.2000
753.41,1348.0000
753.67,1347.2000
753.93,1354.2000
754.19,1349.8000
754.46,1363.0000
754.72,1337.8000
754.98,1341.4000
755.24,1355.4000
755.50,1347.6000
755.76,1343.6000
756.02,1343.2000
756.28,1344.6000
756.54,1339.8000
756.80,1348.4000
757.06,1354.8000
757.32,1347.6000
757.58,1325.8000
757.84,1366.4000
758.10,1328.0000
758.36,1317.6000
758.62,1304.8000
758.88,1262.0000
759.14,1240.0000
759.40,1183.6000
759.66,1118.8000
759.92,1084.8000
760.18,1051.6000
760.44,1054.2000
760.70,1072.6000
760.96,1095.4000
761.22,1132.0000
761.48,1161.2000
761.74,1190.0000
762.00,1171.2000
762.26,1158.4000
762.52,1144.6000
762.78,1128.4000
763.04,1136.4000
763.30,1163.2000
763.56,1137.8000
763.82,1145.0000
764.08,1176.4000
764.34,1182.2000
764.60,1201.8000
764.86,1193.4000
765.12,1211.4000
765.38,1226.2000
765.64,1238.6000
765.90,1262.2000
766.16,1248.8000
766.42,1265.6000
766.68,1271.2000
766.94,1272.0000
767.20,1292.0000
767.46,1288.8000
767.72,1279.0000
767.98,1285.4000
768.23,1297.2000
768.49,1306.6000
768.75,1312.6000
769.01,1317.6000
769.27,1304.8000
769.53,1314.8000
769.79,1309.8000
770.05,1319.4000
770.31,1321.8000
770.57,1329.2000
770.83,1302.2000
771.08,1312.6000
771.34,1303.0000
771.60,1328.2000
771.86,1296.0000
772.12,1306.8000
772.38,1325.6000
772.64,1299.4000
772.90,1309.4000
773.16,1315.4000
773.41,1300.0000
773.67,1292.8000
773.93,1304.2000
774.19,1297.4000
774.45,1307.8000
774.71,1316.6000
774.97,1302.0000
775.22,1296.0000
775.48,1311.2000
775.74,1290.8000
776.00,1305.6000
776.26,1299.6000
776.52,1282.2000
776.77,1310.2000
777.03,1315.6000
777.29,1294.2000
777.55,1273.2000
777.81,1282.4000
778.07,1294.8000
778.32,1265.6000
778.58,1289.6000
778.84,1293.2000
779.10,1297.2000
779.36,1303.6000
779.61,1288.2000
779.87,1286.0000
780.13,1275.6000
780.39,1288.2000
780.65,1267.2000
780.90,1287.6000
781.16,1296.4000
781.42,1289.8000
781.68,1280.2000
781.94,1292.2000
782.19,1278.4000
782.45,1280.4000
782.71,1283.8000
782.97,1280.2000
783.22,1288.4000
783.48,1266.2000
783.74,1278.8000
784.00,1274.6000
784.25,1285.0000
784.51,1257.8000
784.77,1281.4000
785.03,1264.2000
785.28,1275.2000
785.54,1254.6000
785.80,1263.8000
786.06,1260.2000
786.31,1261.4000
786.57,1263.4000
786.83,1261.6000
787.08,1255.2000
787.34,1255.2000
787.60,1266.4000
787.86,1258.8000
788.11,1257.2000
788.37,1248.6000
788.63,1262.0000
788.88,1263.0000
789.14,1246.6000
789.40,1241.2000
789.65,1239.2000
789.91,1250.6000
790.17,1242.0000
790.42,1236.6000
790.68,1237.4000
790.94,1229.2000
791.20,1255.8000
791.45,1253.4000
791.71,1240.4000
791.97,1223.0000
792.22,1237.4000
792.48,1228.8000
792.73,1216.0000
792.99,1233.6000
793.25,1217.0000
793.50,1230.6000
793.76,1231.0000
794.02,1209.6000
794.27,1209.4000
794.53,1234.4000
794.79,1228.2000
795.04,1237.4000
795.30,1233.6000
795.55,1218.6000
795.81,1201.8000
796.07,1223.6000
796.32,1224.6000
796.58,1225.8000
796.84,1208.2000
797.09,1214.2000
797.35,1211.0000
797.60,1220.2000
797.86,1225.4000
798.12,1235.0000
798.37,1225.2000
798.63,1218.0000
798.88,1217.6000
799.14,1219.6000
799.39,1200.8000
799.65,1222.4000
799.91,1201.8000
800.16,1200.4000
800.42,1206.0000
800.67,1221.4000
800.93,1210.2000
801.18,1195.0000
801.44,1210.2000
801.70,1211.4000
801.95,1202.2000
802.21,1205.8000
802.46,1177.6000
802.72,1201.8000
802.97,1212.2000
803.23,1209.0000
803.48,1205.0000
803.74,1195.0000
803.99,1186.4000
804.25,1195.6000
804.50,1219.2000
804.76,1194.6000
805.02,1205.8000
805.27,1206.2000
805.53,1220.0000
805.78,1191.8000
806.04,1207.8000
806.29,1196.6000
806.55,1204.8000
806.80,1194.4000
807.06,1220.2000
807.31,1192.6000
807.56,1189.0000
807.82,1198.6000
808.07,1207.2000
808.33,1192.6000
808.58,1183.0000
808.84,1190.8000
809.09,1176.6000
809.35,1187.4000
809.60,1169.2000
809.86,1177.2000
810.11,1195.2000
810.37,1169.2000
810.62,1161.2000
810.88,1170.8000
811.13,1168.0000
811.38,1165.0000
811.64,1164.6000
811.89,1166.8000
812.15,1156.8000
812.40,1166.8000
812.66,1148.6000
812.91,1160.0000
813.16,1133.6000
813.42,1139.0000
813.67,1134.0000
813.93,1130.6000
814.18,1127.8000
814.44,1141.8000
814.69,1116.2000
814.94,1133.0000
815.20,1111.8000
815.45,1105.6000
815.71,1107.6000
815.96,1098.6000
816.21,1094.2000
816.47,1109.4000
816.72,1108.6000
816.97,1116.0000
817.23,1103.2000
817.48,1105.0000
817.74,1107.2000
817.99,1112.4000
818.24,1122.0000
818.50,1118.6000
818.75,1127.8000
819.00,1113.8000
819.26,1112.6000
819.51,1143.6000
819.76,1104.6000
820.02,1114.8000
820.27,1129.0000
820.52,1127.8000
820.78,1129.8000
821.03,1134.4000
821.28,1137.2000
821.54,1122.6000
821.79,1116.8000
822.04,1096.8000
822.30,1079.8000
822.55,1088.0000
822.80,1075.2000
823.06,1075.8000
823.31,1091.8000
823.56,1101.0000
823.82,1124.4000
824.07,1136.8000
824.32,1119.6000
824.57,1131.6000
824.83,1128.2000
825.08,1137.2000
825.33,1119.8000
825.59,1099.6000
825.84,1125.2000
826.09,1133.0000
826.34,1115.6000
826.60,1119.6000
826.85,1122.4000
827.10,1101.0000
827.35,1109.8000
827.61,1089.8000
827.86,1123.8000
828.11,1115.0000
828.36,1100.6000
828.62,1106.2000
828.87,1116.0000
829.12,1098.8000
829.37,1116.4000
829.63,1117.2000
829.88,1116.8000
830.13,1126.6000
830.38,1122.4000
830.63,1101.8000
830.89,1111.6000
831.14,1114.0000
831.39,1109.8000
831.64,1111.4000
831.89,1115.0000
832.15,1099.0000
832.40,1114.4000
832.65,1113.6000
832.90,1104.8000
833.15,1120.8000
833.41,1112.6000
833.66,1140.6000
833.91,1119.8000
834.16,1123.0000
834.41,1124.4000
834.67,1095.2000
834.92,1120.4000
835.17,1116.6000
835.42,1105.8000
835.67,1117.6000
835.92,1124.2000
836.17,1129.6000
836.43,1119.2000
836.68,1123.0000
836.93,1113.4000
837.18,1117.6000
837.43,1127.2000
837.68,1111.0000
837.93,1113.2000
838.19,1104.8000
838.44,1116.0000
838.69,1114.6000
838.94,1114.8000
839.19,1109.2000
839.44,1130.4000
839.69,1123.4000
839.94,1120.0000
840.20,1124.4000
840.45,1138.8000
840.70,1125.6000
840.95,1123.2000
841.20,1115.4000
841.45,1124.6000
841.70,1118.0000
841.95,1107.8000
842.20,1123.8000
842.45,1148.8000
842.70,1122.2000
842.95,1112.4000
843.21,1105.4000
843.46,1100.2000
843.71,1112.6000
843.96,1132.4000
844.21,1098.4000
844.46,1107.4000
844.71,1113.4000
844.96,1127.6000
845.21,1104.8000
845.46,1108.2000
845.71,1121.8000
845.96,1118.0000
846.21,1112.2000
846.46,1125.4000
846.71,1117.6000
846.96,1087.6000
847.21,1121.4000
847.46,1101.4000
847.71,1109.8000
847.96,1104.2000
848.21,1101.4000
848.46,1107.2000
848.71,1111.2000
848.96,1109.4000
849.21,1104.4000
849.46,1084.4000
849.71,1094.0000
849.96,1091.0000
850.21,1081.6000
850.46,1105.0000
850.71,1105.6000
850.96,1094.2000
851.21,1087.6000
851.46,1091.8000
851.71,1092.6000
851.96,1091.8000
852.21,1092.2000
852.46,1086.0000
852.71,1103.4000
852.96,1086.0000
853.21,1093.2000
853.46,1077.8000
853.71,1087.8000
853.96,1068.0000
854.21,1072.4000
854.46,1100.2000
854.70,1084.6000
854.95,1091.8000
855.20,1099.2000
855.45,1102.0000
855.70,1101.8000
855.95,1085.6000
856.20,1111.2000
856.45,1097.2000
856.70,1092.8000
856.95,1102.8000
857.20,1081.8000
857.44,1101.2000
857.69,1084.2000
857.94,1100.4000
858.19,1098.6000
858.44,1102.0000
858.69,1104.2000
858.94,1113.0000
859.19,1091.2000
859.44,1086.2000
859.68,1106.8000
859.93,1097.0000
860.18,1093.6000
860.43,1099.2000
860.68,1111.6000
860.93,1097.2000
861.18,1101.4000
861.42,1093.4000
861.67,1088.2000
861.92,1102.0000
862.17,1106.6000
862.42,1100.6000
862.67,1089.2000
862.91,1102.6000
863.16,1094.4000
863.41,1094.4000
863.66,1098.4000
863.91,1109.2000
864.16,1092.0000
864.40,1075.8000
864.65,1098.6000
864.90,1068.6000
865.15,1076.8000
865.40,1066.8000
865.64,1079.2000
865.89,1068.6000
866.14,1070.0000
866.39,1057.4000
866.64,1072.4000
866.88,1069.6000
867.13,1089.2000
867.38,1097.2000
867.63,1060.2000
867.87,1079.4000
868.12,1082.6000
868.37,1082.6000
868.62,1072.0000
868.86,1079.0000
869.11,1067.2000
869.36,1080.2000
869.61,1088.2000
869.85,1083.2000
870.10,1110.0000
870.35,1089.6000
870.60,1082.8000
870.84,1072.4000
871.09,1078.8000
871.34,1082.8000
871.59,1076.2000
871.83,1089.2000
872.08,1088.4000
872.33,1057.0000
872.57,1075.2000
872.82,1085.8000
873.07,1082.0000
873.32,1095.6000
873.56,1074.8000
873.81,1075.4000
874.06,1084.0000
874.30,1067.8000
874.55,1086.0000
874.80,1059.2000
875.04,1081.8000
875.29,1069.0000
875.54,1085.6000
875.78,1071.6000
876.03,1070.6000
876.28,1068.2000
876.52,1061.0000
876.77,1060.6000
877.02,1080.8000
877.26,1067.0000
877.51,1054.6000
877.76,1074.6000
878.00,1072.6000
878.25,1064.4000
878.50,1074.0000
878.74,1072.6000
878.99,1076.4000
879.23,1056.0000
879.48,1051.4000
879.73,1075.6000
879.97,1068.0000
880.22,1050.6000
880.47,1061.4000
880.71,1042.8000
880.96,1089.0000
881.20,1065.2000
881.45,1075.0000
881.70,1066.8000
881.94,1066.8000
882.19,1055.4000
882.43,1067.6000
882.68,1060.2000
882.92,1077.0000
883.17,1060.8000
883.42,1067.4000
883.66,1067.6000
883.91,1056.0000
884.15,1056.6000
884.40,1073.4000
884.64,1059.8000
884.89,1061.8000
885.14,1053.4000
885.38,1069.8000
885.63,1059.8000
885.87,1049.2000
886.12,1054.6000
886.36,1061.8000
886.61,1052.8000
886.85,1060.0000
887.10,1060.0000
887.34,1043.8000
887.59,1061.8000
887.83,1058.6000
888.08,1062.0000
888.32,1037.4000
888.57,1061.0000
888.81,1063.0000
889.06,1059.6000
889.30,1046.6000
889.55,1055.0000
889.79,1051.6000
890.04,1060.4000
890.28,1049.8000
890.53,1063.0000
890.77,1063.0000
891.02,1046.2000
891.26,1066.0000
891.51,1040.2000
891.75,1044.6000
892.00,1047.8000
892.24,1038.0000
892.49,1031.6000
892.73,1049.6000
892.98,1046.4000
893.22,1044.0000
893.47,1027.2000
893.71,1042.2000
893.95,1029.8000
894.20,1031.6000
894.44,1017.6000
894.69,1054.2000
894.93,1060.6000
895.18,1031.4000
895.42,1032.4000
895.66,1018.2000
895.91,1018.4000
896.15,1002.4000
896.40,1008.6000
896.64,1023.6000
896.88,1012.6000
897.13,1017.0000
897.37,1008.4000
897.62,1021.6000
897.86,1016.8000
898.10,1009.2000
898.35,1001.8000
898.59,995.8000
898.84,1010.6000
899.08,1000.0000
899.32,1014.8000
899.57,1017.0000
899.81,984.4000
900.05,1000.6000
900.30,1000.4000
900.54,1000.0000
900.78,1021.2000
901.03,1021.4000
901.27,1005.2000
901.52,997.0000
901.76,1008.2000
902.00,1009.8000
902.25,1009.2000
902.49,1003.0000
902.73,1009.0000
902.98,1012.0000
903.22,1013.6000
903.46,1010.2000
903.70,1016.0000
903.95,1024.0000
904.19,1028.8000
904.43,1027.6000
904.68,1022.0000
904.92,1009.8000
905.16,1021.8000
905.41,1014.4000
905.65,1002.4000
905.89,1002.2000
906.13,1022.8000
906.38,997.2000
906.62,998.6000
906.86,989.6000
907.11,993.4000
907.35,996.0000
907.59,1025.6000
907.83,1025.0000
908.08,994.6000
908.32,983.0000
908.56,998.4000
908.80,1004.6000
909.05,1011.8000
909.29,993.4000
909.53,993.6000
909.77,995.0000
910.02,991.0000
910.26,1026.4000
910.50,997.2000
910.74,999.4000
910.98,997.6000
911.23,1006.2000
911.47,996.2000
911.71,1009.4000
911.95,989.4000
912.20,1000.6000
912.44,984.0000
912.68,986.0000
912.92,989.8000
913.16,982.2000
913.41,968.0000
913.65,996.8000
913.89,995.6000
914.13,999.8000
914.37,994.6000
914.61,994.8000
914.86,979.2000
915.10,987.4000
915.34,997.4000
915.58,983.8000
915.82,983.6000
916.06,990.6000
916.31,989.0000
916.55,989.2000
916.79,998.6000
917.03,986.4000
917.27,975.4000
917.51,992.2000
917.75,986.8000
918.00,986.0000
918.24,1012.6000
918.48,999.6000
918.72,1025.8000
918.96,996.4000
919.20,1006.8000
919.44,1012.8000
919.68,1022.8000
919.92,1004.6000
920.17,1001.2000
920.41,1000.6000
920.65,994.8000
920.89,998.8000
921.13,998.0000
921.37,1002.2000
921.61,988.6000
921.85,994.6000
922.09,993.4000
922.33,1007.2000
922.57,1003.2000
922.81,973.8000
923.05,999.4000
923.30,988.4000
923.54,983.8000
923.78,980.2000
924.02,990.4000
924.26,982.4000
924.50,982.6000
924.74,997.2000
924.98,991.8000
925.22,992.0000
925.46,984.2000
925.70,995.2000
925.94,998.8000
926.18,985.4000
926.42,986.8000
926.66,992.8000
926.90,978.8000
927.14,962.8000
927.38,971.8000
927.62,970.4000
927.86,999.6000
928.10,977.4000
928.34,965.2000
928.58,954.6000
928.82,961.8000
929.06,954.2000
929.30,975.4000
929.54,961.2000
929.78,951.0000
930.02,933.0000
930.26,948.0000
930.50,942.4000
930.74,950.4000
930.98,934.8000
931.22,949.8000
931.46,945.0000
931.70,939.0000
931.94,955.8000
932.17,946.8000
932.41,941.8000
932.65,934.0000
932.89,933.0000
933.13,938.6000
933.37,936.2000
933.61,908.6000
933.85,927.2000
934.09,927.0000
934.33,929.2000
934.57,919.0000
934.81,931.2000
935.05,948.2000
935.28,927.4000
935.52,924.6000
935.76,930.0000
936.00,938.0000
936.24,936.6000
936.48,930.0000
936.72,927.6000
936.96,922.8000
937.19,941.8000
937.43,947.2000
937.67,937.4000
937.91,935.2000
938.15,928.0000
938.39,937.4000
938.63,940.4000
938.86,943.8000
939.10,946.0000
939.34,942.6000
939.58,934.4000
939.82,943.2000
940.06,939.6000
940.30,929.2000
940.53,930.6000
940.77,932.8000
941.01,932.8000
941.25,926.8000
