Wavelength (nm),Intensity
394.27,935.4000
394.56,925.8000
394.85,938.6000
395.14,928.8000
395.44,932.8000
395.73,935.2000
396.02,916.8000
396.31,932.2000
396.61,927.8000
396.90,913.0000
397.19,929.8000
397.48,928.4000
397.77,922.4000
398.06,926.4000
398.36,930.4000
398.65,913.6000
398.94,912.2000
399.23,913.0000
399.52,916.6000
399.82,924.6000
400.11,918.8000
400.40,927.6000
400.69,925.4000
400.98,913.8000
401.27,935.2000
401.57,910.8000
401.86,916.4000
402.15,916.8000
402.44,925.4000
402.73,928.4000
403.02,931.6000
403.32,916.4000
403.61,932.2000
403.90,924.4000
404.19,928.8000
404.48,938.0000
404.77,931.4000
405.06,933.4000
405.36,947.2000
405.65,933.6000
405.94,911.2000
406.23,943.4000
406.52,944.0000
406.81,948.4000
407.10,951.0000
407.40,944.4000
407.69,937.0000
407.98,939.2000
408.27,928.8000
408.56,931.8000
408.85,954.8000
409.14,933.8000
409.43,941.8000
409.72,931.2000
410.02,962.0000
410.31,941.0000
410.60,935.0000
410.89,949.6000
411.18,946.0000
411.47,939.6000
411.76,937.0000
412.05,942.4000
412.34,943.2000
412.63,946.8000
412.93,975.0000
413.22,949.0000
413.51,943.8000
413.80,947.0000
414.09,940.8000
414.38,942.8000
414.67,957.0000
414.96,945.4000
415.25,973.8000
415.54,961.2000
415.83,933.8000
416.12,945.8000
416.41,943.6000
416.70,967.8000
417.00,961.6000
417.29,948.2000
417.58,962.8000
417.87,956.0000
418.16,968.4000
418.45,961.8000
418.74,959.0000
419.03,970.8000
419.32,983.6000
419.61,978.0000
419.90,986.0000
420.19,960.2000
420.48,973.2000
420.77,964.4000
421.06,969.8000
421.35,976.8000
421.64,975.6000
421.93,963.6000
422.22,979.0000
422.51,993.0000
422.80,985.0000
423.09,983.0000
423.38,1007.6000
423.67,999.6000
423.96,996.8000
424.25,993.4000
424.54,1003.6000
424.83,986.4000
425.12,987.2000
425.41,1008.2000
425.70,1041.2000
425.99,1017.6000
426.28,1009.4000
426.57,1020.8000
426.86,1020.6000
427.15,1031.0000
427.44,1038.2000
427.73,1034.2000
428.02,1027.0000
428.31,1040.8000
428.60,1066.8000
428.89,1046.8000
429.18,1052.0000
429.47,1077.4000
429.76,1062.4000
430.05,1062.0000
430.34,1082.8000
430.63,1070.4000
430.92,1096.2000
431.21,1115.0000
431.50,1087.2000
431.79,1093.6000
432.08,1099.0000
432.37,1117.4000
432.66,1125.0000
432.94,1130.6000
433.23,1142.8000
433.52,1160.6000
433.81,1162.0000
434.10,1207.4000
434.39,1178.6000
434.68,1202.8000
434.97,1197.2000
435.26,1207.2000
435.55,1215.4000
435.84,1233.2000
436.13,1242.2000
436.42,1259.4000
436.71,1258.8000
436.99,1287.4000
437.28,1302.8000
437.57,1306.8000
437.86,1306.6000
438.15,1339.6000
438.44,1349.0000
438.73,1363.2000
439.02,1410.0000
439.31,1422.6000
439.60,1412.8000
439.88,1458.2000
440.17,1476.4000
440.46,1492.8000
440.75,1503.4000
441.04,1521.0000
441.33,1590.0000
441.62,1594.4000
441.91,1611.2000
442.20,1651.0000
442.48,1686.8000
442.77,1721.0000
443.06,1742.6000
443.35,1763.8000
443.64,1829.2000
443.93,1840.2000
444.22,1885.8000
444.50,1928.2000
444.79,1982.4000
445.08,2005.2000
445.37,2067.4000
445.66,2102.6000
445.95,2134.2000
446.24,2191.2000
446.52,2230.0000
446.81,2291.0000
447.10,2326.6000
447.39,2370.8000
447.68,2420.6000
447.97,2442.0000
448.25,2520.0000
448.54,2532.4000
448.83,2577.0000
449.12,2632.8000
449.41,2659.8000
449.69,2687.6000
449.98,2716.4000
450.27,2714.6000
450.56,2762.6000
450.85,2769.2000
451.14,2766.8000
451.42,2799.2000
451.71,2824.2000
452.00,2814.8000
452.29,2807.6000
452.58,2799.2000
452.86,2781.2000
453.15,2787.8000
453.44,2748.0000
453.73,2745.0000
454.01,2702.6000
454.30,2719.2000
454.59,2635.4000
454.88,2622.0000
455.17,2571.2000
455.45,2574.2000
455.74,2529.6000
456.03,2488.8000
456.32,2443.0000
456.60,2416.6000
456.89,2372.4000
457.18,2319.0000
457.47,2280.8000
457.76,2252.8000
458.04,2232.0000
458.33,2196.2000
458.62,2170.6000
458.91,2134.4000
459.19,2095.8000
459.48,2071.6000
459.77,2035.8000
460.06,2052.0000
460.34,2013.8000
460.63,2002.2000
460.92,1979.0000
461.20,1966.8000
461.49,1973.4000
461.78,1934.6000
462.07,1935.4000
462.35,1930.2000
462.64,1920.2000
462.93,1899.2000
463.22,1924.2000
463.50,1887.8000
463.79,1877.6000
464.08,1886.6000
464.36,1864.8000
464.65,1855.2000
464.94,1854.4000
465.22,1853.0000
465.51,1836.2000
465.80,1842.4000
466.09,1817.2000
466.37,1836.8000
466.66,1820.8000
466.95,1793.4000
467.23,1774.4000
467.52,1780.4000
467.81,1781.8000
468.09,1749.0000
468.38,1739.2000
468.67,1747.8000
468.95,1713.8000
469.24,1702.0000
469.53,1697.8000
469.81,1693.8000
470.10,1679.0000
470.39,1665.4000
470.67,1633.6000
470.96,1621.4000
471.25,1616.4000
471.53,1610.0000
471.82,1594.0000
472.11,1563.4000
472.39,1568.0000
472.68,1548.8000
472.97,1540.6000
473.25,1543.2000
473.54,1519.0000
473.82,1514.2000
474.11,1507.0000
474.40,1500.0000
474.68,1517.4000
474.97,1482.6000
475.26,1467.4000
475.54,1462.6000
475.83,1462.6000
476.11,1452.2000
476.40,1461.2000
476.69,1449.4000
476.97,1447.6000
477.26,1444.6000
477.55,1442.4000
477.83,1431.4000
478.12,1444.4000
478.40,1438.8000
478.69,1432.2000
478.98,1418.6000
479.26,1412.6000
479.55,1431.4000
479.83,1427.2000
480.12,1442.2000
480.40,1422.4000
480.69,1429.6000
480.98,1437.8000
481.26,1446.2000
481.55,1434.8000
481.83,1442.2000
482.12,1419.0000
482.41,1423.8000
482.69,1437.6000
482.98,1447.8000
483.26,1456.4000
483.55,1453.2000
483.83,1460.8000
484.12,1444.8000
484.40,1452.4000
484.69,1445.0000
484.98,1470.6000
485.26,1456.8000
485.55,1459.2000
485.83,1446.6000
486.12,1469.2000
486.40,1462.6000
486.69,1452.0000
486.97,1485.8000
487.26,1467.0000
487.54,1482.4000
487.83,1487.4000
488.11,1484.2000
488.40,1504.6000
488.68,1515.2000
488.97,1490.0000
489.26,1506.2000
489.54,1520.0000
489.83,1505.8000
490.11,1513.6000
490.40,1528.2000
490.68,1526.2000
490.97,1519.6000
491.25,1547.6000
491.54,1539.8000
491.82,1564.4000
492.11,1567.4000
492.39,1589.0000
492.68,1576.4000
492.96,1606.0000
493.24,1583.6000
493.53,1585.4000
493.81,1617.8000
494.10,1599.4000
494.38,1605.0000
494.67,1618.0000
494.95,1654.0000
495.24,1633.6000
495.52,1662.6000
495.81,1652.2000
496.09,1680.0000
496.38,1654.8000
496.66,1697.6000
496.95,1693.0000
497.23,1697.8000
497.51,1718.4000
497.80,1706.2000
498.08,1723.0000
498.37,1714.8000
498.65,1741.4000
498.94,1767.0000
499.22,1765.6000
499.51,1764.4000
499.79,1762.4000
500.07,1777.2000
500.36,1799.2000
500.64,1794.2000
500.93,1791.6000
501.21,1816.4000
501.50,1827.6000
501.78,1832.4000
502.06,1825.2000
502.35,1849.4000
502.63,1843.2000
502.92,1874.0000
503.20,1890.0000
503.48,1901.6000
503.77,1889.0000
504.05,1899.4000
504.34,1895.4000
504.62,1925.8000
504.90,1908.2000
505.19,1929.8000
505.47,1942.2000
505.76,1951.6000
506.04,1956.4000
506.32,1978.2000
506.61,1935.8000
506.89,2002.0000
507.17,1992.6000
507.46,1984.2000
507.74,2000.8000
508.03,1993.8000
508.31,2003.8000
508.59,2013.2000
508.88,1997.8000
509.16,2044.6000
509.44,2029.2000
509.73,2058.6000
510.01,2052.0000
510.29,2058.4000
510.58,2048.8000
510.86,2061.4000
511.14,2080.2000
511.43,2087.4000
511.71,2073.8000
511.99,2092.8000
512.28,2088.4000
512.56,2083.8000
512.84,2097.6000
513.13,2098.2000
513.41,2101.8000
513.69,2133.0000
513.98,2127.8000
514.26,2138.2000
514.54,2149.4000
514.83,2151.0000
515.11,2148.2000
515.39,2146.2000
515.68,2171.0000
515.96,2169.4000
516.24,2158.8000
516.53,2153.0000
516.81,2193.6000
517.09,2153.6000
517.37,2177.6000
517.66,2188.4000
517.94,2180.2000
518.22,2200.0000
518.51,2202.4000
518.79,2212.2000
519.07,2198.6000
519.35,2221.2000
519.64,2242.6000
519.92,2245.2000
520.20,2235.0000
520.48,2255.4000
520.77,2233.8000
521.05,2237.4000
521.33,2229.8000
521.62,2250.2000
521.90,2261.8000
522.18,2251.4000
522.46,2277.2000
522.75,2270.2000
523.03,2279.2000
523.31,2261.8000
523.59,2311.2000
523.88,2285.0000
524.16,2286.8000
524.44,2287.8000
524.72,2300.2000
525.00,2315.8000
525.29,2298.0000
525.57,2317.8000
525.85,2312.2000
526.13,2275.2000
526.42,2293.6000
526.70,2333.0000
526.98,2292.4000
527.26,2315.0000
527.54,2309.0000
527.83,2327.0000
528.11,2330.2000
528.39,2345.8000
528.67,2336.0000
528.95,2363.0000
529.24,2355.6000
529.52,2341.2000
529.80,2354.8000
530.08,2360.4000
530.36,2355.2000
530.65,2358.8000
530.93,2379.8000
531.21,2362.8000
531.49,2381.2000
531.77,2375.8000
532.05,2371.0000
532.34,2381.4000
532.62,2355.2000
532.90,2396.2000
533.18,2396.6000
533.46,2400.0000
533.74,2402.2000
534.03,2384.8000
534.31,2397.0000
534.59,2404.6000
534.87,2415.2000
535.15,2412.6000
535.43,2422.8000
535.71,2430.2000
536.00,2402.4000
536.28,2423.0000
536.56,2426.6000
536.84,2411.8000
537.12,2416.4000
537.40,2433.4000
537.68,2441.4000
537.97,2440.2000
538.25,2422.4000
538.53,2444.4000
538.81,2440.4000
539.09,2414.6000
539.37,2462.6000
539.65,2449.8000
539.93,2474.2000
540.21,2446.4000
540.50,2428.0000
540.78,2462.6000
541.06,2468.6000
541.34,2473.0000
541.62,2481.6000
541.90,2478.4000
542.18,2492.0000
542.46,2484.4000
542.74,2491.4000
543.02,2497.6000
543.30,2498.0000
543.58,2497.8000
543.87,2497.4000
544.15,2508.4000
544.43,2516.8000
544.71,2533.6000
544.99,2522.0000
545.27,2508.0000
545.55,2492.4000
545.83,2495.6000
546.11,2516.6000
546.39,2549.2000
546.67,2526.8000
546.95,2539.0000
547.23,2534.4000
547.51,2537.2000
547.79,2545.6000
548.07,2558.4000
548.35,2539.2000
548.63,2519.8000
548.91,2567.2000
549.20,2543.4000
549.48,2595.0000
549.76,2571.8000
550.04,2568.4000
550.32,2582.6000
550.60,2570.8000
550.88,2571.2000
551.16,2568.6000
551.44,2581.4000
551.72,2595.4000
552.00,2589.0000
552.28,2600.0000
552.56,2624.2000
552.84,2612.2000
553.12,2609.0000
553.40,2603.8000
553.68,2619.8000
553.96,2606.0000
554.24,2612.6000
554.52,2608.6000
554.80,2620.8000
555.08,2632.2000
555.36,2630.4000
555.64,2639.0000
555.92,2639.2000
556.19,2647.6000
556.47,2640.6000
556.75,2630.0000
557.03,2665.4000
557.31,2661.0000
557.59,2645.6000
557.87,2659.2000
558.15,2668.2000
558.43,2668.0000
558.71,2653.4000
558.99,2691.8000
559.27,2687.2000
559.55,2674.6000
559.83,2683.4000
560.11,2692.8000
560.39,2693.8000
560.67,2718.2000
560.95,2710.6000
561.23,2699.0000
561.50,2726.0000
561.78,2689.6000
562.06,2690.4000
562.34,2727.0000
562.62,2725.4000
562.90,2760.6000
563.18,2730.4000
563.46,2721.4000
563.74,2727.0000
564.02,2746.0000
564.30,2730.6000
564.57,2758.2000
564.85,2740.0000
565.13,2785.0000
565.41,2773.0000
565.69,2743.8000
565.97,2775.4000
566.25,2768.6000
566.53,2746.2000
566.81,2779.0000
567.08,2795.6000
567.36,2776.6000
567.64,2773.2000
567.92,2820.4000
568.20,2770.8000
568.48,2782.4000
568.76,2835.2000
569.04,2826.4000
569.31,2826.8000
569.59,2831.4000
569.87,2799.4000
570.15,2817.4000
570.43,2843.0000
570.71,2843.4000
570.99,2828.6000
571.26,2849.8000
571.54,2846.2000
571.82,2834.4000
572.10,2827.8000
572.38,2853.4000
572.66,2874.6000
572.93,2851.0000
573.21,2876.0000
573.49,2836.6000
573.77,2907.6000
574.05,2863.8000
574.32,2871.6000
574.60,2873.0000
574.88,2900.2000
575.16,2903.4000
575.44,2895.0000
575.71,2890.4000
575.99,2941.6000
576.27,2917.6000
576.55,2892.6000
576.83,2901.4000
577.10,2903.0000
577.38,2913.0000
577.66,2885.0000
577.94,2901.2000
578.22,2929.0000
578.49,2903.0000
578.77,2926.8000
579.05,2936.6000
579.33,2946.4000
579.60,2952.2000
579.88,2924.4000
580.16,2962.4000
580.44,2977.2000
580.72,2944.8000
580.99,2941.0000
581.27,2980.4000
581.55,2980.6000
581.83,2946.0000
582.10,2972.0000
582.38,2974.8000
582.66,2955.6000
582.94,2972.0000
583.21,2984.0000
583.49,2993.8000
583.77,2986.6000
584.04,2981.2000
584.32,2963.8000
584.60,3010.2000
584.88,2991.0000
585.15,2999.4000
585.43,2994.0000
585.71,2988.8000
585.98,2993.2000
586.26,2993.4000
586.54,3018.0000
586.82,3022.6000
587.09,2994.0000
587.37,3021.0000
587.65,2996.8000
587.92,3016.8000
588.20,3037.0000
588.48,3027.6000
588.75,3020.6000
589.03,2996.2000
589.31,3019.0000
589.59,3005.2000
589.86,3032.8000
590.14,3010.2000
590.42,3031.0000
590.69,3047.8000
590.97,3014.0000
591.25,3014.6000
591.52,3015.6000
591.80,3032.8000
592.08,3028.0000
592.35,3034.0000
592.63,3027.4000
592.91,3035.2000
593.18,3039.6000
593.46,3040.8000
593.73,3040.8000
594.01,3045.0000
594.29,3052.6000
594.56,3042.6000
594.84,3035.6000
595.12,3048.6000
595.39,3030.0000
595.67,3042.4000
595.95,3047.2000
596.22,3014.2000
596.50,3016.8000
596.77,3042.4000
597.05,3036.0000
597.33,3047.8000
597.60,3034.8000
597.88,3037.0000
598.15,3042.8000
598.43,3020.2000
598.71,3017.6000
598.98,3094.2000
599.26,3039.8000
599.53,3030.0000
599.81,3023.8000
600.09,3040.8000
600.36,3034.4000
600.64,3058.0000
600.91,3018.4000
601.19,3033.4000
601.47,3017.2000
601.74,2993.8000
602.02,3020.4000
602.29,3021.6000
602.57,3005.0000
602.84,3009.8000
603.12,2978.0000
603.40,3028.0000
603.67,3010.2000
603.95,3020.0000
604.22,3029.6000
604.50,3016.8000
604.77,3002.8000
605.05,2980.4000
605.32,3002.2000
605.60,2997.0000
605.87,2959.4000
606.15,2984.8000
606.42,2951.4000
606.70,2987.2000
606.98,2963.8000
607.25,2974.4000
607.53,2956.6000
607.80,2977.2000
608.08,2956.8000
608.35,2961.8000
608.63,2965.4000
608.90,2954.0000
609.18,2963.0000
609.45,2980.8000
609.73,2956.6000
610.00,2958.6000
610.28,2944.2000
610.55,2926.8000
610.83,2937.0000
611.10,2941.0000
611.38,2937.2000
611.65,2922.8000
611.93,2912.0000
612.20,2922.8000
612.48,2890.6000
612.75,2912.0000
613.03,2893.6000
613.30,2921.2000
613.57,2910.4000
613.85,2878.8000
614.12,2899.0000
614.40,2860.6000
614.67,2847.2000
614.95,2889.8000
615.22,2843.0000
615.50,2828.4000
615.77,2874.4000
616.05,2839.0000
616.32,2846.0000
616.59,2853.2000
616.87,2860.2000
617.14,2823.4000
617.42,2833.0000
617.69,2831.6000
617.97,2818.8000
618.24,2798.6000
618.51,2796.8000
618.79,2796.2000
619.06,2788.2000
619.34,2783.6000
619.61,2779.8000
619.88,2793.0000
620.16,2774.4000
620.43,2765.2000
620.71,2754.6000
620.98,2736.2000
621.26,2751.8000
621.53,2731.4000
621.80,2742.0000
622.08,2731.0000
622.35,2684.6000
622.62,2707.8000
622.90,2699.8000
623.17,2680.0000
623.45,2682.0000
623.72,2696.4000
623.99,2652.0000
624.27,2664.6000
624.54,2642.6000
624.81,2655.6000
625.09,2643.0000
625.36,2608.6000
625.64,2641.4000
625.91,2623.8000
626.18,2640.6000
626.46,2613.6000
626.73,2616.6000
627.00,2632.0000
627.28,2588.4000
627.55,2577.4000
627.82,2591.6000
628.10,2570.2000
628.37,2539.0000
628.64,2550.4000
628.92,2538.2000
629.19,2550.4000
629.46,2529.6000
629.74,2533.6000
630.01,2536.2000
630.28,2548.4000
630.56,2553.2000
630.83,2523.4000
631.10,2532.6000
631.37,2540.2000
631.65,2506.8000
631.92,2505.8000
632.19,2493.0000
632.47,2481.6000
632.74,2471.4000
633.01,2461.6000
633.28,2439.0000
633.56,2424.2000
633.83,2405.4000
634.10,2407.2000
634.38,2421.4000
634.65,2437.4000
634.92,2419.0000
635.19,2437.6000
635.47,2407.0000
635.74,2390.0000
636.01,2362.8000
636.28,2357.0000
636.56,2361.8000
636.83,2338.6000
637.10,2354.4000
637.37,2350.4000
637.65,2322.8000
637.92,2291.0000
638.19,2275.0000
638.46,2298.6000
638.74,2280.6000
639.01,2308.0000
639.28,2262.4000
639.55,2280.6000
639.83,2257.6000
640.10,2232.4000
640.37,2257.4000
640.64,2233.8000
640.91,2216.4000
641.19,2213.6000
641.46,2223.8000
641.73,2212.8000
642.00,2211.4000
642.28,2196.6000
642.55,2194.0000
642.82,2174.8000
643.09,2171.2000
643.36,2170.4000
643.63,2160.4000
643.91,2151.2000
644.18,2158.4000
644.45,2130.4000
644.72,2143.4000
644.99,2112.8000
645.27,2083.6000
645.54,2110.6000
645.81,2115.0000
646.08,2112.6000
646.35,2080.6000
646.62,2081.2000
646.90,2084.6000
647.17,2082.0000
647.44,2062.2000
647.71,2079.8000
647.98,2047.6000
648.25,2041.4000
648.52,2045.0000
648.80,2017.6000
649.07,2006.4000
649.34,2007.8000
649.61,2001.4000
649.88,2009.8000
650.15,2003.4000
650.42,1987.0000
650.69,1971.2000
650.97,1984.2000
651.24,1976.6000
651.51,1963.4000
651.78,1962.8000
652.05,1925.6000
652.32,1938.6000
652.59,1956.8000
652.86,1905.4000
653.13,1912.0000
653.41,1922.0000
653.68,1900.6000
653.95,1897.8000
654.22,1905.4000
654.49,1888.6000
654.76,1863.8000
655.03,1882.8000
655.30,1860.6000
655.57,1852.0000
655.84,1858.4000
656.11,1867.4000
656.38,1840.6000
656.66,1814.0000
656.93,1805.8000
657.20,1814.6000
657.47,1817.2000
657.74,1814.4000
658.01,1810.4000
658.28,1789.8000
658.55,1786.2000
658.82,1777.2000
659.09,1793.6000
659.36,1771.8000
659.63,1762.2000
659.90,1758.4000
660.17,1776.0000
660.44,1750.6000
660.71,1749.8000
660.98,1739.2000
661.25,1742.2000
661.52,1718.0000
661.79,1725.0000
662.06,1697.0000
662.33,1695.6000
662.60,1696.2000
662.87,1719.8000
663.14,1679.8000
663.41,1683.4000
663.68,1662.4000
663.95,1658.4000
664.22,1670.8000
664.49,1663.6000
664.76,1657.8000
665.03,1635.6000
665.30,1629.8000
665.57,1639.6000
665.84,1614.6000
666.11,1616.4000
666.38,1610.2000
666.65,1616.0000
666.92,1635.0000
667.19,1600.2000
667.46,1606.4000
667.73,1594.4000
668.00,1574.6000
668.27,1583.8000
668.54,1577.4000
668.81,1564.2000
669.08,1568.0000
669.35,1559.0000
669.62,1578.8000
669.89,1541.2000
670.16,1558.8000
670.42,1538.2000
670.69,1534.8000
670.96,1539.0000
671.23,1522.4000
671.50,1510.8000
671.77,1510.4000
672.04,1516.8000
672.31,1510.0000
672.58,1519.2000
672.85,1496.4000
673.12,1493.4000
673.39,1489.4000
673.65,1465.6000
673.92,1505.0000
674.19,1474.0000
674.46,1469.6000
674.73,1478.2000
675.00,1462.0000
675.27,1470.6000
675.54,1458.8000
675.81,1445.0000
676.07,1448.8000
676.34,1455.6000
676.61,1443.0000
676.88,1425.6000
677.15,1438.4000
677.42,1435.4000
677.69,1422.8000
677.96,1422.2000
678.22,1418.6000
678.49,1396.6000
678.76,1404.2000
679.03,1392.4000
679.30,1380.8000
679.57,1373.8000
679.83,1401.0000
680.10,1372.8000
680.37,1393.4000
680.64,1375.0000
680.91,1363.0000
681.18,1380.4000
681.44,1360.4000
681.71,1378.4000
681.98,1371.2000
682.25,1360.6000
682.52,1348.6000
682.79,1360.6000
683.05,1363.4000
683.32,1342.6000
683.59,1346.6000
683.86,1332.8000
684.13,1339.0000
684.39,1334.0000
684.66,1329.0000
684.93,1318.4000
685.20,1330.0000
685.47,1301.8000
685.73,1321.2000
686.00,1306.2000
686.27,1314.2000
686.54,1295.4000
686.80,1319.2000
687.07,1300.8000
687.34,1276.4000
687.61,1290.4000
687.88,1278.2000
688.14,1282.0000
688.41,1282.0000
688.68,1267.2000
688.95,1262.2000
689.21,1261.4000
689.48,1277.8000
689.75,1266.0000
690.02,1246.2000
690.28,1246.4000
690.55,1255.2000
690.82,1238.4000
691.08,1250.6000
691.35,1243.8000
691.62,1250.6000
691.89,1237.2000
692.15,1242.2000
692.42,1246.8000
692.69,1220.0000
692.95,1222.4000
693.22,1225.2000
693.49,1221.4000
693.76,1219.6000
694.02,1231.0000
694.29,1208.6000
694.56,1204.0000
694.82,1222.0000
695.09,1201.2000
695.36,1198.8000
695.62,1202.8000
695.89,1206.2000
696.16,1188.4000
696.43,1202.6000
696.69,1210.0000
696.96,1211.2000
697.23,1188.0000
697.49,1182.4000
697.76,1198.4000
698.03,1174.2000
698.29,1168.4000
698.56,1180.6000
698.82,1171.2000
699.09,1187.0000
699.36,1182.8000
699.62,1175.8000
699.89,1167.2000
700.16,1158.6000
700.42,1171.4000
700.69,1163.6000
700.96,1173.2000
701.22,1183.8000
701.49,1167.0000
701.75,1176.0000
702.02,1153.8000
702.29,1151.6000
702.55,1145.2000
702.82,1157.8000
703.09,1156.4000
703.35,1161.0000
703.62,1153.0000
703.88,1161.2000
704.15,1135.4000
704.42,1138.0000
704.68,1136.4000
704.95,1162.8000
705.21,1139.2000
705.48,1146.8000
705.75,1112.0000
706.01,1135.2000
706.28,1129.8000
706.54,1128.2000
706.81,1136.4000
707.07,1129.8000
707.34,1121.2000
707.61,1123.0000
707.87,1133.8000
708.14,1130.0000
708.40,1114.6000
708.67,1121.0000
708.93,1120.6000
709.20,1113.6000
709.46,1124.6000
709.73,1121.4000
709.99,1120.6000
710.26,1118.0000
710.53,1106.6000
710.79,1096.0000
711.06,1125.8000
711.32,1205.0000
711.59,1129.8000
711.85,1141.4000
712.12,1109.6000
712.38,1108.4000
712.65,1107.4000
712.91,1111.4000
713.18,1112.8000
713.44,1110.0000
713.71,1094.6000
713.97,1105.8000
714.24,1104.2000
714.50,1098.2000
714.77,1105.2000
715.03,1113.2000
715.30,1109.4000
715.56,1097.8000
715.83,1090.4000
716.09,1103.2000
716.36,1108.2000
716.62,1096.0000
716.89,1084.0000
717.15,1104.2000
717.42,1074.0000
717.68,1075.4000
717.94,1072.0000
718.21,1090.8000
718.47,1093.0000
718.74,1066.4000
719.00,1084.2000
719.27,1087.2000
719.53,1071.8000
719.80,1086.0000
720.06,1086.8000
720.32,1099.8000
720.59,1084.0000
720.85,1079.6000
721.12,1066.2000
721.38,1106.4000
721.65,1089.8000
721.91,1078.8000
722.17,1085.8000
722.44,1100.6000
722.70,1081.0000
722.97,1082.2000
723.23,1085.8000
723.49,1078.4000
723.76,1064.8000
724.02,1088.6000
724.29,1085.4000
724.55,1073.8000
724.81,1077.2000
725.08,1088.0000
725.34,1088.0000
725.61,1064.4000
725.87,1085.8000
726.13,1071.8000
726.40,1094.2000
726.66,1079.0000
726.92,1074.6000
727.19,1075.0000
727.45,1072.0000
727.71,1086.4000
727.98,1075.6000
728.24,1098.2000
728.51,1077.6000
728.77,1067.8000
729.03,1073.8000
729.30,1078.8000
729.56,1077.2000
729.82,1084.6000
730.09,1074.4000
730.35,1066.8000
730.61,1083.2000
730.88,1080.8000
731.14,1086.8000
731.40,1086.6000
731.67,1076.8000
731.93,1087.2000
732.19,1086.0000
732.45,1104.6000
732.72,1081.0000
732.98,1094.6000
733.24,1097.2000
733.51,1085.6000
733.77,1095.2000
734.03,1104.4000
734.30,1100.6000
734.56,1094.4000
734.82,1075.4000
735.08,1104.6000
735.35,1092.0000
735.61,1097.0000
735.87,1099.8000
736.14,1095.4000
736.40,1104.0000
736.66,1102.6000
736.92,1101.8000
737.19,1102.0000
737.45,1098.2000
737.71,1091.4000
737.97,1100.8000
738.24,1101.2000
738.50,1093.2000
738.76,1109.2000
739.02,1094.0000
739.29,1106.4000
739.55,1105.2000
739.81,1109.0000
740.07,1103.2000
740.33,1114.2000
740.60,1090.0000
740.86,1115.8000
741.12,1097.8000
741.38,1096.6000
741.65,1107.8000
741.91,1091.2000
742.17,1108.4000
742.43,1088.2000
742.69,1113.4000
742.96,1120.2000
743.22,1103.8000
743.48,1115.4000
743.74,1098.2000
744.00,1107.2000
744.26,1096.8000
744.53,1112.6000
744.79,1102.2000
745.05,1093.4000
745.31,1111.0000
745.57,1120.8000
745.84,1119.8000
746.10,1098.0000
746.36,1105.6000
746.62,1096.0000
746.88,1115.4000
747.14,1122.0000
747.40,1107.8000
747.67,1108.0000
747.93,1112.4000
748.19,1099.8000
748.45,1118.0000
748.71,1112.0000
748.97,1105.8000
749.23,1103.4000
749.50,1110.6000
749.76,1102.8000
750.02,1092.4000
750.28,1114.6000
750.54,1103.6000
750.80,1113.6000
751.06,1093.8000
751.32,1107.2000
751.59,1107.4000
751.85,1116.4000
752.11,1115.8000
752.37,1120.0000
752.63,1103.2000
752.89,1122.6000
753.15,1124.8000
753.41,1097.6000
753.67,1102.2000
753.93,1109.0000
754.19,1093.8000
754.46,1117.0000
754.72,1088.2000
754.98,1101.6000
755.24,1100.8000
755.50,1094.4000
755.76,1111.2000
756.02,1108.2000
756.28,1089.0000
756.54,1101.4000
756.80,1115.0000
757.06,1121.0000
757.32,1083.2000
757.58,1094.8000
757.84,1104.8000
758.10,1096.0000
758.36,1095.0000
758.62,1090.6000
758.88,1065.8000
759.14,1073.8000
759.40,1030.6000
759.66,993.6000
759.92,997.2000
760.18,977.0000
760.44,982.2000
760.70,992.8000
760.96,998.0000
761.22,1016.0000
761.48,1021.0000
761.74,1041.6000
762.00,1045.6000
762.26,1027.6000
762.52,1013.8000
762.78,1015.8000
763.04,1018.8000
763.30,1030.0000
763.56,1004.0000
763.82,1013.0000
764.08,1031.2000
764.34,1040.4000
764.60,1044.0000
764.86,1041.4000
765.12,1035.0000
765.38,1043.2000
765.64,1058.8000
765.90,1084.6000
766.16,1053.2000
766.42,1065.0000
766.68,1070.4000
766.94,1059.6000
767.20,1073.2000
767.46,1067.8000
767.72,1057.4000
767.98,1086.4000
768.23,1080.0000
768.49,1080.8000
768.75,1087.8000
769.01,1091.2000
769.27,1075.2000
769.53,1098.0000
769.79,1083.4000
770.05,1095.0000
770.31,1076.8000
770.57,1103.2000
770.83,1083.6000
771.08,1081.0000
771.34,1072.4000
771.60,1089.4000
771.86,1067.0000
772.12,1066.4000
772.38,1080.4000
772.64,1075.4000
772.90,1070.0000
773.16,1077.2000
773.41,1083.2000
773.67,1072.2000
773.93,1076.4000
774.19,1076.4000
774.45,1076.0000
774.71,1075.8000
774.97,1075.0000
775.22,1082.0000
775.48,1068.4000
775.74,1061.6000
776.00,1087.8000
776.26,1070.4000
776.52,1063.2000
776.77,1073.6000
777.03,1069.8000
777.29,1066.0000
777.55,1058.6000
777.81,1067.4000
778.07,1065.6000
778.32,1055.8000
778.58,1051.0000
778.84,1067.8000
779.10,1069.6000
779.36,1078.8000
779.61,1061.0000
779.87,1077.0000
780.13,1060.0000
780.39,1067.2000
780.65,1064.8000
780.90,1058.6000
781.16,1062.0000
781.42,1059.6000
781.68,1064.0000
781.94,1059.8000
782.19,1060.2000
782.45,1064.4000
782.71,1066.4000
782.97,1062.6000
783.22,1068.8000
783.48,1055.0000
783.74,1057.4000
784.00,1060.2000
784.25,1075.0000
784.51,1048.8000
784.77,1066.0000
785.03,1049.6000
785.28,1059.0000
785.54,1052.8000
785.80,1065.4000
786.06,1066.0000
786.31,1046.8000
786.57,1054.4000
786.83,1063.4000
787.08,1057.4000
787.34,1044.0000
787.60,1066.0000
787.86,1041.6000
788.11,1043.0000
788.37,1054.0000
788.63,1054.2000
788.88,1061.4000
789.14,1055.6000
789.40,1062.2000
789.65,1049.2000
789.91,1071.0000
790.17,1042.8000
790.42,1034.8000
790.68,1050.4000
790.94,1048.8000
791.20,1068.6000
791.45,1054.8000
791.71,1036.8000
791.97,1026.2000
792.22,1053.6000
792.48,1029.2000
792.73,1033.6000
792.99,1046.2000
793.25,1028.0000
793.50,1048.8000
793.76,1043.6000
794.02,1032.2000
794.27,1032.4000
794.53,1050.2000
794.79,1044.6000
795.04,1056.6000
795.30,1035.6000
795.55,1033.2000
795.81,1018.8000
796.07,1037.0000
796.32,1028.8000
796.58,1032.2000
796.84,1036.8000
797.09,1039.4000
797.35,1045.4000
797.60,1036.6000
797.86,1036.2000
798.12,1049.4000
798.37,1042.8000
798.63,1048.0000
798.88,1033.4000
799.14,1022.6000
799.39,1029.2000
799.65,1042.8000
799.91,1019.4000
800.16,1027.2000
800.42,1033.4000
800.67,1044.0000
800.93,1032.0000
801.18,1020.8000
801.44,1046.0000
801.70,1038.4000
801.95,1030.2000
802.21,1020.0000
802.46,1014.4000
802.72,1019.2000
802.97,1042.6000
803.23,1036.8000
803.48,1038.2000
803.74,1016.6000
803.99,1020.4000
804.25,1023.6000
804.50,1031.8000
804.76,1026.8000
805.02,1004.2000
805.27,1035.6000
805.53,1033.8000
805.78,1024.2000
806.04,1036.4000
806.29,1011.2000
806.55,1035.0000
806.80,1018.4000
807.06,1057.0000
807.31,1008.6000
807.56,1025.2000
807.82,1029.0000
808.07,1041.0000
808.33,1026.8000
808.58,1018.8000
808.84,1025.8000
809.09,1019.2000
809.35,1034.6000
809.60,1007.8000
809.86,1020.8000
810.11,1022.2000
810.37,1017.0000
810.62,1007.6000
810.88,1011.6000
811.13,1021.2000
811.38,1009.8000
811.64,1016.6000
811.89,1016.0000
812.15,1010.6000
812.40,1003.8000
812.66,1021.6000
812.91,1003.0000
813.16,999.0000
813.42,1001.8000
813.67,1005.8000
813.93,1000.2000
814.18,1000.0000
814.44,1012.2000
814.69,991.4000
814.94,983.6000
815.20,985.0000
815.45,982.2000
815.71,987.4000
815.96,987.4000
816.21,988.2000
816.47,994.8000
816.72,983.2000
816.97,1000.0000
817.23,977.2000
817.48,985.0000
817.74,993.8000
817.99,993.4000
818.24,1007.4000
818.50,990.2000
818.75,1003.4000
819.00,998.8000
819.26,1004.2000
819.51,1033.0000
819.76,982.8000
820.02,997.4000
820.27,993.8000
820.52,988.2000
820.78,999.0000
821.03,1009.4000
821.28,1008.8000
821.54,992.6000
821.79,992.6000
822.04,988.8000
822.30,991.6000
822.55,985.6000
822.80,984.6000
823.06,970.4000
823.31,997.2000
823.56,998.4000
823.82,999.0000
824.07,1001.8000
824.32,987.0000
824.57,997.6000
824.83,997.8000
825.08,1006.2000
825.33,1006.2000
825.59,979.0000
825.84,990.2000
826.09,992.4000
826.34,982.2000
826.60,990.6000
826.85,983.6000
827.10,988.6000
827.35,1001.8000
827.61,982.2000
827.86,986.0000
828.11,991.6000
828.36,973.6000
828.62,987.0000
828.87,996.6000
829.12,978.8000
829.37,1006.8000
829.63,982.0000
829.88,999.6000
830.13,987.2000
830.38,998.2000
830.63,985.8000
830.89,984.0000
831.14,995.0000
831.39,994.6000
831.64,988.8000
831.89,1000.6000
832.15,983.4000
832.40,987.0000
832.65,996.6000
832.90,989.4000
833.15,993.2000
833.41,991.2000
833.66,1031.6000
833.91,1000.4000
834.16,994.4000
834.41,1000.4000
834.67,976.6000
834.92,997.6000
835.17,987.2000
835.42,992.6000
835.67,995.0000
835.92,1003.2000
836.17,985.6000
836.43,999.4000
836.68,1006.2000
836.93,987.4000
837.18,992.2000
837.43,991.8000
837.68,999.4000
837.93,976.4000
838.19,993.8000
838.44,984.2000
838.69,995.2000
838.94,982.0000
839.19,977.6000
839.44,990.6000
839.69,1004.2000
839.94,983.0000
840.20,1004.8000
840.45,990.2000
840.70,996.2000
840.95,986.2000
841.20,992.0000
841.45,987.8000
841.70,992.0000
841.95,988.2000
842.20,1002.0000
842.45,1005.2000
842.70,995.4000
842.95,977.8000
843.21,988.6000
843.46,977.6000
843.71,994.2000
843.96,1004.2000
844.21,985.8000
844.46,973.2000
844.71,1000.0000
844.96,1008.4000
845.21,972.0000
845.46,977.2000
845.71,998.4000
845.96,989.4000
846.21,1001.8000
846.46,990.8000
846.71,996.0000
846.96,973.8000
847.21,994.4000
847.46,1002.0000
847.71,993.6000
847.96,980.2000
848.21,984.6000
848.46,996.8000
848.71,981.2000
848.96,997.2000
849.21,989.4000
849.46,967.0000
849.71,990.0000
849.96,977.2000
850.21,981.6000
850.46,986.4000
850.71,976.2000
850.96,968.6000
851.21,976.2000
851.46,972.0000
851.71,986.4000
851.96,970.6000
852.21,981.2000
852.46,975.8000
852.71,986.6000
852.96,983.4000
853.21,974.4000
853.46,978.8000
853.71,978.0000
853.96,969.0000
854.21,964.8000
854.46,1004.8000
854.70,985.6000
854.95,985.2000
855.20,979.8000
855.45,990.0000
855.70,986.8000
855.95,991.4000
856.20,983.2000
856.45,976.0000
856.70,983.6000
856.95,993.6000
857.20,977.2000
857.44,999.8000
857.69,972.6000
857.94,990.0000
858.19,994.2000
858.44,979.2000
858.69,974.8000
858.94,988.4000
859.19,980.0000
859.44,976.4000
859.68,985.0000
859.93,993.0000
860.18,976.4000
860.43,981.8000
860.68,1002.4000
860.93,975.4000
861.18,987.0000
861.42,985.8000
861.67,991.8000
861.92,985.0000
862.17,989.2000
862.42,984.2000
862.67,978.6000
862.91,982.8000
863.16,983.6000
863.41,979.8000
863.66,993.4000
863.91,998.0000
864.16,997.0000
864.40,973.6000
864.65,987.0000
864.90,971.8000
865.15,967.6000
865.40,969.2000
865.64,979.0000
865.89,974.6000
866.14,970.0000
866.39,968.0000
866.64,967.4000
866.88,964.8000
867.13,985.0000
867.38,983.8000
867.63,963.2000
867.87,972.2000
868.12,977.0000
868.37,982.6000
868.62,970.4000
868.86,962.2000
869.11,957.2000
869.36,975.8000
869.61,984.6000
869.85,982.4000
870.10,986.4000
870.35,985.0000
870.60,976.6000
870.84,976.4000
871.09,974.6000
871.34,984.8000
871.59,977.4000
871.83,977.6000
872.08,977.0000
872.33,959.4000
872.57,974.0000
872.82,983.4000
873.07,969.8000
873.32,986.2000
873.56,987.0000
873.81,970.4000
874.06,969.2000
874.30,960.6000
874.55,979.6000
874.80,969.6000
875.04,985.4000
875.29,972.2000
875.54,972.4000
875.78,969.0000
876.03,973.2000
876.28,963.4000
876.52,966.6000
876.77,965.2000
877.02,974.8000
877.26,967.6000
877.51,972.0000
877.76,975.8000
878.00,972.6000
878.25,973.8000
878.50,987.4000
878.74,974.8000
878.99,969.0000
879.23,965.2000
879.48,961.2000
879.73,975.8000
879.97,960.6000
880.22,958.6000
880.47,969.4000
880.71,954.0000
880.96,992.6000
881.20,972.2000
881.45,962.0000
881.70,971.6000
881.94,976.2000
882.19,969.8000
882.43,982.0000
882.68,969.6000
882.92,995.8000
883.17,972.0000
883.42,971.2000
883.66,971.2000
883.91,962.2000
884.15,966.8000
884.40,977.0000
884.64,964.8000
884.89,986.2000
885.14,977.4000
885.38,963.2000
885.63,973.6000
885.87,967.0000
886.12,976.8000
886.36,976.6000
886.61,968.2000
886.85,972.2000
887.10,961.6000
887.34,958.6000
887.59,972.4000
887.83,968.6000
888.08,977.2000
888.32,957.8000
888.57,975.0000
888.81,969.4000
889.06,970.8000
889.30,960.0000
889.55,965.0000
889.79,964.4000
890.04,973.6000
890.28,965.6000
890.53,976.2000
890.77,976.6000
891.02,961.2000
891.26,962.2000
891.51,956.2000
891.75,973.2000
892.00,953.0000
892.24,962.4000
892.49,957.6000
892.73,977.4000
892.98,966.0000
893.22,964.0000
893.47,953.2000
893.71,964.4000
893.95,977.0000
894.20,952.4000
894.44,946.8000
894.69,970.0000
894.93,989.0000
895.18,951.8000
895.42,960.2000
895.66,949.6000
895.91,945.6000
896.15,946.4000
896.40,955.8000
896.64,963.4000
896.88,947.4000
897.13,964.2000
897.37,945.0000
897.62,948.8000
897.86,960.2000
898.10,941.8000
898.35,947.0000
898.59,948.6000
898.84,958.4000
899.08,942.2000
899.32,957.2000
899.57,959.8000
899.81,946.2000
900.05,946.0000
900.30,948.8000
900.54,943.6000
900.78,964.8000
901.03,957.2000
901.27,946.4000
901.52,953.6000
901.76,950.4000
902.00,948.4000
902.25,944.0000
902.49,941.4000
902.73,960.6000
902.98,954.0000
903.22,949.8000
903.46,952.2000
903.70,954.8000
903.95,958.2000
904.19,969.6000
904.43,965.4000
904.68,956.4000
904.92,947.6000
905.16,949.0000
905.41,948.2000
905.65,951.2000
905.89,942.4000
906.13,973.0000
906.38,948.2000
906.62,963.0000
906.86,947.8000
907.11,948.2000
907.35,939.0000
907.59,958.2000
907.83,979.2000
908.08,942.0000
908.32,931.0000
908.56,946.6000
908.80,949.0000
909.05,957.4000
909.29,954.2000
909.53,946.0000
909.77,946.4000
910.02,950.0000
910.26,966.2000
910.50,949.0000
910.74,953.2000
910.98,940.6000
911.23,957.2000
911.47,954.6000
911.71,953.2000
911.95,943.2000
912.20,957.4000
912.44,929.4000
912.68,947.8000
912.92,941.4000
913.16,951.2000
913.41,917.6000
913.65,948.6000
913.89,934.0000
914.13,938.8000
914.37,940.6000
914.61,959.8000
914.86,938.4000
915.10,946.4000
915.34,943.6000
915.58,935.6000
915.82,943.6000
916.06,936.6000
916.31,933.4000
916.55,950.0000
916.79,943.6000
917.03,948.0000
917.27,937.0000
917.51,943.4000
917.75,948.4000
918.00,938.8000
918.24,957.8000
918.48,949.6000
918.72,974.4000
918.96,951.4000
919.20,960.6000
919.44,964.2000
919.68,979.0000
919.92,948.0000
920.17,943.8000
920.41,947.6000
920.65,947.2000
920.89,955.0000
921.13,950.2000
921.37,954.8000
921.61,927.6000
921.85,955.0000
922.09,946.8000
922.33,957.6000
922.57,946.4000
922.81,930.8000
923.05,947.0000
923.30,936.8000
923.54,935.0000
923.78,927.0000
924.02,952.6000
924.26,937.4000
924.50,934.8000
924.74,942.0000
924.98,939.4000
925.22,941.2000
925.46,937.0000
925.70,950.8000
925.94,967.4000
926.18,945.8000
926.42,946.4000
926.66,951.4000
926.90,935.2000
927.14,913.4000
927.38,937.0000
927.62,929.8000
927.86,956.8000
928.10,943.8000
928.34,926.8000
928.58,918.6000
928.82,930.0000
929.06,940.2000
929.30,956.4000
929.54,941.4000
929.78,914.4000
930.02,916.0000
930.26,935.4000
930.50,915.8000
930.74,933.6000
930.98,922.4000
931.22,930.0000
931.46,921.8000
931.70,913.0000
931.94,931.4000
932.17,930.0000
932.41,936.4000
932.65,919.0000
932.89,915.6000
933.13,926.8000
933.37,924.2000
933.61,902.0000
933.85,921.2000
934.09,904.4000
934.33,908.8000
934.57,912.4000
934.81,912.8000
935.05,934.0000
935.28,919.8000
935.52,914.6000
935.76,906.0000
936.00,921.4000
936.24,922.8000
936.48,914.0000
936.72,928.0000
936.96,917.2000
937.19,923.6000
937.43,938.4000
937.67,920.0000
937.91,914.2000
938.15,914.2000
938.39,915.4000
938.63,913.4000
938.86,910.6000
939.10,923.8000
939.34,920.0000
939.58,912.6000
939.82,916.2000
940.06,917.8000
940.30,916.6000
940.53,909.6000
940.77,902.4000
941.01,912.2000
941.25,905.8000
